time,position,velocity,torque
0.000000000000000000e+00,0.000000000000000000e+00,0.000000000000000000e+00,3.475498864190968984e-01
1.499999999999999944e-02,1.302083333333333148e-01,2.468532986111111160e+00,9.851700472110751505e-01
2.999999999999999889e-02,4.784913049404457275e-01,4.094513052673868003e+00,1.462402087071072776e+00
4.499999999999999833e-02,9.403638450773773583e-01,4.669320859990562234e+00,1.910764319853894389e+00
5.999999999999999778e-02,1.414131765144837738e+00,4.518190388891940579e+00,2.391129470941337765e+00
7.499999999999999722e-02,1.844016452892988100e+00,4.078193692658066638e+00,2.500000000000000000e+00
8.999999999999999667e-02,2.197970028035143741e+00,3.239920794757418676e+00,2.500000000000000000e+00
1.049999999999999961e-01,2.465371134418674171e+00,2.425186977453011927e+00,2.500000000000000000e+00
1.199999999999999956e-01,2.660252603081902034e+00,1.764713269692133490e+00,2.500000000000000000e+00
1.350000000000000089e-01,2.800077408545103896e+00,1.265934408381967025e+00,2.500000000000000000e+00
1.499999999999999944e-01,2.899691889953072810e+00,9.022756294316411907e-01,2.500000000000000000e+00
1.649999999999999800e-01,2.970432709187822873e+00,6.408209164431564187e-01,2.500000000000000000e+00
1.799999999999999933e-01,3.020541589522606429e+00,4.535457101075377473e-01,2.500000000000000000e+00
1.950000000000000067e-01,3.056015172977623262e+00,3.214991294047234716e-01,2.500000000000000000e+00
2.099999999999999922e-01,3.081149048630031029e+00,2.277917061274410127e-01,2.500000000000000000e+00
2.249999999999999778e-01,3.098967613690796430e+00,1.616378465200411507e-01,2.500000000000000000e+00
2.399999999999999911e-01,3.111516721429377963e+00,1.129156310236225508e-01,2.500000000000000000e+00
2.550000000000000044e-01,3.120286906095704804e+00,7.895561810675635894e-02,2.500000000000000000e+00
2.700000000000000178e-01,3.126477611761187436e+00,5.631450535290448423e-02,2.500000000000000000e+00
2.849999999999999756e-01,3.130867657937555837e+00,3.968446277545169265e-02,2.500000000000000000e+00
2.999999999999999889e-01,3.134004519441269565e+00,2.878507862613866736e-02,2.500000000000000000e+00
3.150000000000000022e-01,3.136246476736047839e+00,2.024682784473682412e-02,2.500000000000000000e+00
3.299999999999999600e-01,3.137826817262217904e+00,1.430557729837703129e-02,2.500000000000000000e+00
3.449999999999999734e-01,3.138944264772990156e+00,1.012374058142150555e-02,2.500000000000000000e+00
3.599999999999999867e-01,3.139736048525104906e+00,7.183136141156155896e-03,2.500000000000000000e+00
3.750000000000000000e-01,3.140299359545249747e+00,5.125376122578465671e-03,2.500000000000000000e+00
3.900000000000000133e-01,3.140693480901809220e+00,3.508900093212159906e-03,2.500000000000000000e+00
4.049999999999999711e-01,3.140969829171689209e+00,2.525991683809899330e-03,2.500000000000000000e+00
4.199999999999999845e-01,3.141167751369754235e+00,1.799157137436904535e-03,2.500000000000000000e+00
4.349999999999999978e-01,3.141312182845517498e+00,1.347056754303908302e-03,2.500000000000000000e+00
4.499999999999999556e-01,3.141419066221814660e+00,9.847751640243715757e-04,2.500000000000000000e+00
4.649999999999999689e-01,3.141500619510682046e+00,7.846780682094810569e-04,2.500000000000000000e+00
4.799999999999999822e-01,3.141562394499414435e+00,5.644312059730509021e-04,2.500000000000000000e+00
4.949999999999999956e-01,3.141612624084455963e+00,5.158463043457824429e-04,2.500000000000000000e+00
5.100000000000000089e-01,3.141617602165917233e+00,-3.044805337403395625e-04,2.500000000000000000e+00
5.250000000000000222e-01,3.141562030487111024e+00,-8.181195228951089037e-04,2.500000000000000000e+00
5.400000000000000355e-01,3.141516243214731219e+00,-2.354735390300624880e-04,2.448059092227601319e+00
5.549999999999999378e-01,3.141503920531752758e+00,-5.154742786968205363e-05,2.240785045708248546e+00
5.699999999999999512e-01,3.141505524255687298e+00,7.026083404875705578e-05,1.990140830745294798e+00
5.849999999999999645e-01,3.141516422642762318e+00,1.522889922531126179e-04,1.735191437054738106e+00
5.999999999999999778e-01,3.141530791258754007e+00,1.546538932557043602e-04,1.481284689318326908e+00
6.149999999999999911e-01,3.141540641057809058e+00,6.715609455308711295e-05,1.231326683341148254e+00
6.300000000000000044e-01,3.141539491576408327e+00,-7.371790328222618328e-05,1.001651461196537696e+00
6.450000000000000178e-01,3.141517664155933254e+00,-3.568122160412200410e-04,7.934153164362949262e-01
6.599999999999999201e-01,3.141481053981735716e+00,-4.181777064809509342e-04,6.072760850634995045e-01
6.749999999999999334e-01,3.141459150320217386e+00,-9.191842685929562805e-05,4.387178499885147631e-01
6.899999999999999467e-01,3.141479323930718159e+00,4.535301262768034157e-04,2.755919715803846759e-01
7.049999999999999600e-01,3.141520781360375825e+00,4.352904965213036338e-04,1.490167841355479750e-01
7.199999999999999734e-01,3.141556625444667628e+00,3.429738584415559016e-04,8.554191687714141068e-02
7.349999999999999867e-01,3.141583042998882469e+00,2.356425531625848478e-04,6.330694072041248566e-02
7.500000000000000000e-01,3.141592653589793116e+00,0.000000000000000000e+00,7.417893224213359393e-02
7.650000000000000133e-01,3.141592653589793116e+00,0.000000000000000000e+00,1.207777068629670436e-01
7.800000000000000266e-01,3.141592653589793116e+00,0.000000000000000000e+00,2.060197922040543361e-01
7.949999999999999289e-01,3.141592653589793116e+00,0.000000000000000000e+00,2.992855728554821848e-01
8.099999999999999423e-01,3.141592653589793116e+00,0.000000000000000000e+00,4.362860503037276905e-01
8.249999999999999556e-01,3.141592653589793116e+00,0.000000000000000000e+00,5.600834206804473636e-01
8.399999999999999689e-01,3.141592653589793116e+00,0.000000000000000000e+00,7.166477482259121512e-01
8.549999999999999822e-01,3.141592653589793116e+00,0.000000000000000000e+00,8.766063306725865312e-01
8.699999999999999956e-01,3.141592653589793116e+00,0.000000000000000000e+00,1.037050649159554583e+00
8.850000000000000089e-01,3.141592653589793116e+00,0.000000000000000000e+00,1.172499893996510778e+00
8.999999999999999112e-01,3.141592653589793116e+00,0.000000000000000000e+00,1.308940690960276099e+00
9.149999999999999245e-01,3.141592653589793116e+00,0.000000000000000000e+00,1.432624575115416299e+00
9.299999999999999378e-01,3.141592653589793116e+00,0.000000000000000000e+00,1.544553901183244093e+00
9.449999999999999512e-01,3.141592653589793116e+00,0.000000000000000000e+00,1.618624290814551392e+00
9.599999999999999645e-01,3.141592653589793116e+00,0.000000000000000000e+00,1.692341344729034081e+00
9.749999999999999778e-01,3.141592653589793116e+00,0.000000000000000000e+00,1.731720801764397688e+00
9.899999999999999911e-01,3.141592653589793116e+00,0.000000000000000000e+00,1.757080345813110345e+00
1.004999999999999893e+00,3.141592653589793116e+00,0.000000000000000000e+00,1.763614884709429065e+00
1.020000000000000018e+00,3.141592653589793116e+00,0.000000000000000000e+00,1.706510749332432741e+00
1.034999999999999920e+00,3.141592653589793116e+00,0.000000000000000000e+00,1.648672737864933957e+00
1.050000000000000044e+00,3.141592653589793116e+00,0.000000000000000000e+00,1.568729944589199343e+00
1.064999999999999947e+00,3.141592653589793116e+00,0.000000000000000000e+00,1.481556011327349598e+00
1.080000000000000071e+00,3.141592653589793116e+00,0.000000000000000000e+00,1.366873669275867620e+00
1.094999999999999973e+00,3.141592653589793116e+00,0.000000000000000000e+00,1.281806422765157549e+00
1.109999999999999876e+00,3.141592653589793116e+00,0.000000000000000000e+00,1.142445591488107315e+00
1.125000000000000000e+00,3.141592653589793116e+00,0.000000000000000000e+00,1.045107958451843899e+00
1.139999999999999902e+00,3.141592653589793116e+00,0.000000000000000000e+00,8.933112004189678323e-01
1.155000000000000027e+00,3.141592653589793116e+00,0.000000000000000000e+00,7.537542663518100872e-01
1.169999999999999929e+00,3.141592653589793116e+00,0.000000000000000000e+00,6.645437471282568120e-01
1.185000000000000053e+00,3.141592653589793116e+00,0.000000000000000000e+00,5.503387803692328939e-01
1.199999999999999956e+00,3.141592653589793116e+00,0.000000000000000000e+00,4.329128927632939217e-01
1.214999999999999858e+00,3.141592653589793116e+00,0.000000000000000000e+00,3.549357942724201687e-01
1.229999999999999982e+00,3.141592653589793116e+00,0.000000000000000000e+00,2.449372130742670794e-01
1.244999999999999885e+00,3.141592653589793116e+00,0.000000000000000000e+00,1.316201434853023489e-01
1.260000000000000009e+00,3.141592653589793116e+00,0.000000000000000000e+00,1.014958569004046629e-01
1.274999999999999911e+00,3.141592653589793116e+00,0.000000000000000000e+00,2.861281609618695349e-02
1.290000000000000036e+00,3.141592653589793116e+00,0.000000000000000000e+00,1.758153831284084423e-02
1.304999999999999938e+00,3.141592653589793116e+00,0.000000000000000000e+00,1.365704668981524567e-02
1.319999999999999840e+00,3.141592653589793116e+00,0.000000000000000000e+00,1.520144249057723759e-02
1.334999999999999964e+00,3.141592653589793116e+00,0.000000000000000000e+00,6.136861745091422293e-02
1.349999999999999867e+00,3.141592653589793116e+00,0.000000000000000000e+00,9.946108454181822045e-02
1.364999999999999991e+00,3.141592653589793116e+00,0.000000000000000000e+00,1.297124952887751814e-01
1.379999999999999893e+00,3.141592653589793116e+00,0.000000000000000000e+00,2.070756810366395084e-01
1.395000000000000018e+00,3.141592653589793116e+00,0.000000000000000000e+00,2.903413364405906805e-01
1.409999999999999920e+00,3.141592653589793116e+00,0.000000000000000000e+00,3.330799458765599796e-01
1.425000000000000044e+00,3.141592653589793116e+00,0.000000000000000000e+00,3.575190078214502964e-01
1.439999999999999947e+00,3.141592653589793116e+00,0.000000000000000000e+00,4.326527030972825427e-01
1.454999999999999849e+00,3.141592653589793116e+00,0.000000000000000000e+00,4.888695760908264298e-01
1.469999999999999973e+00,3.141592653589793116e+00,0.000000000000000000e+00,5.275909649759089604e-01
1.484999999999999876e+00,3.141592653589793116e+00,0.000000000000000000e+00,5.533948467422367123e-01
1.500000000000000000e+00,3.141592653589793116e+00,0.000000000000000000e+00,5.878390413212229992e-01
1.514999999999999902e+00,3.141592653589793116e+00,0.000000000000000000e+00,6.249951661866586239e-01
1.530000000000000027e+00,3.141592653589793116e+00,0.000000000000000000e+00,6.461568616139448107e-01
1.544999999999999929e+00,3.141592653589793116e+00,0.000000000000000000e+00,6.774952259139952471e-01
1.560000000000000053e+00,3.141592653589793116e+00,0.000000000000000000e+00,6.962648312325520061e-01
1.574999999999999956e+00,3.141592653589793116e+00,0.000000000000000000e+00,7.266161639358672542e-01
1.589999999999999858e+00,3.141592653589793116e+00,0.000000000000000000e+00,8.620888340984755871e-01
1.604999999999999982e+00,3.141592653589793116e+00,0.000000000000000000e+00,8.545892280174958167e-01
1.619999999999999885e+00,3.141592653589793116e+00,0.000000000000000000e+00,8.353723623919293573e-01
1.635000000000000009e+00,3.141592653589793116e+00,0.000000000000000000e+00,8.024271709804371433e-01
1.649999999999999911e+00,3.141592653589793116e+00,0.000000000000000000e+00,7.633300683252594032e-01
1.665000000000000036e+00,3.141592653589793116e+00,0.000000000000000000e+00,7.286461401146164807e-01
1.679999999999999938e+00,3.141592653589793116e+00,0.000000000000000000e+00,6.802338861180478036e-01
1.694999999999999840e+00,3.141592653589793116e+00,0.000000000000000000e+00,5.945610267559158224e-01
1.709999999999999964e+00,3.141592653589793116e+00,0.000000000000000000e+00,5.112902755969799262e-01
1.724999999999999867e+00,3.141592653589793116e+00,0.000000000000000000e+00,4.556716969908238823e-01
1.739999999999999991e+00,3.141592653589793116e+00,0.000000000000000000e+00,3.731620777263972566e-01
1.754999999999999893e+00,3.141592653589793116e+00,0.000000000000000000e+00,3.068806529415564199e-01
1.770000000000000018e+00,3.141592653589793116e+00,0.000000000000000000e+00,2.302296634494230276e-01
1.784999999999999920e+00,3.141592653589793116e+00,0.000000000000000000e+00,1.638504781741179639e-01
1.799999999999999822e+00,3.141592653589793116e+00,0.000000000000000000e+00,8.374296711288714556e-02
1.814999999999999947e+00,3.141592653589793116e+00,0.000000000000000000e+00,-1.354939130336696440e-02
1.829999999999999849e+00,3.141592653589793116e+00,0.000000000000000000e+00,-8.309181667637705049e-02
1.844999999999999973e+00,3.141592653589793116e+00,0.000000000000000000e+00,-1.092217254401383619e-01
1.859999999999999876e+00,3.141592653589793116e+00,0.000000000000000000e+00,-9.186230913339077375e-02
1.875000000000000000e+00,3.141592653589793116e+00,0.000000000000000000e+00,-1.562094761381526697e-01
1.889999999999999902e+00,3.141592653589793116e+00,0.000000000000000000e+00,-1.447086896036983150e-01
1.905000000000000027e+00,3.141592653589793116e+00,0.000000000000000000e+00,-1.567192306196772966e-01
1.919999999999999929e+00,3.141592653589793116e+00,0.000000000000000000e+00,-1.479906422210714168e-01
1.934999999999999831e+00,3.141592653589793116e+00,0.000000000000000000e+00,-1.127620551260511694e-01
1.949999999999999956e+00,3.141592653589793116e+00,0.000000000000000000e+00,-8.079446861920047684e-02
1.964999999999999858e+00,3.141592653589793116e+00,0.000000000000000000e+00,-3.576192773046907303e-02
1.979999999999999982e+00,3.141592653589793116e+00,0.000000000000000000e+00,2.184676508782265603e-02
1.994999999999999885e+00,3.141592653589793116e+00,0.000000000000000000e+00,6.562937162972409810e-02
2.009999999999999787e+00,3.141592653589793116e+00,0.000000000000000000e+00,6.908589319882157964e-02
2.024999999999999911e+00,3.141592653589793116e+00,0.000000000000000000e+00,1.335098686648437116e-01
2.040000000000000036e+00,3.141592653589793116e+00,0.000000000000000000e+00,1.369663902339411932e-01
2.054999999999999716e+00,3.141592653589793116e+00,0.000000000000000000e+00,1.621186940930610942e-01
2.069999999999999840e+00,3.141592653589793116e+00,0.000000000000000000e+00,1.841077578544759730e-01
2.084999999999999964e+00,3.141592653589793116e+00,0.000000000000000000e+00,1.841077578544759730e-01
2.100000000000000089e+00,3.141592653589793116e+00,0.000000000000000000e+00,2.013903656999633529e-01
2.114999999999999769e+00,3.141592653589793116e+00,0.000000000000000000e+00,2.255860166836461123e-01
2.129999999999999893e+00,3.141592653589793116e+00,0.000000000000000000e+00,2.221294951145482421e-01
2.145000000000000018e+00,3.141592653589793116e+00,0.000000000000000000e+00,2.207818002772545252e-01
2.160000000000000142e+00,3.141592653589793116e+00,0.000000000000000000e+00,2.173252787081570436e-01
2.174999999999999822e+00,3.141592653589793116e+00,0.000000000000000000e+00,2.149231705049612362e-01
2.189999999999999947e+00,3.141592653589793116e+00,0.000000000000000000e+00,2.056080191635704657e-01
2.205000000000000071e+00,3.141592653589793116e+00,0.000000000000000000e+00,2.056080191635704657e-01
2.219999999999999751e+00,3.141592653589793116e+00,0.000000000000000000e+00,2.218362136431565601e-01
2.234999999999999876e+00,3.141592653589793116e+00,0.000000000000000000e+00,2.228906270090582342e-01
2.250000000000000000e+00,3.141592653589793116e+00,0.000000000000000000e+00,2.218362136431565601e-01
2.265000000000000124e+00,3.141592653589793116e+00,0.000000000000000000e+00,2.114666489358637547e-01
2.279999999999999805e+00,3.141592653589793116e+00,0.000000000000000000e+00,2.080101273667662731e-01
2.294999999999999929e+00,3.141592653589793116e+00,0.000000000000000000e+00,2.045536057976684030e-01
2.310000000000000053e+00,3.141592653589793116e+00,0.000000000000000000e+00,2.149231705049612362e-01
2.324999999999999734e+00,3.141592653589793116e+00,0.000000000000000000e+00,2.183796920740590786e-01
2.339999999999999858e+00,3.141592653589793116e+00,0.000000000000000000e+00,2.252927352122540416e-01
2.354999999999999982e+00,3.141592653589793116e+00,0.000000000000000000e+00,2.425753430577418102e-01
2.370000000000000107e+00,3.141592653589793116e+00,0.000000000000000000e+00,2.425753430577418102e-01
2.384999999999999787e+00,3.141592653589793116e+00,0.000000000000000000e+00,2.425753430577418102e-01
2.399999999999999911e+00,3.141592653589793116e+00,0.000000000000000000e+00,2.460318646268392917e-01
2.415000000000000036e+00,3.141592653589793116e+00,0.000000000000000000e+00,2.494883861959367732e-01
2.429999999999999716e+00,3.141592653589793116e+00,0.000000000000000000e+00,2.598579509032296064e-01
2.444999999999999840e+00,3.141592653589793116e+00,0.000000000000000000e+00,2.633144724723274210e-01
2.459999999999999964e+00,3.141592653589793116e+00,0.000000000000000000e+00,2.667709940414249026e-01
2.475000000000000089e+00,3.141592653589793116e+00,0.000000000000000000e+00,2.529449077650346434e-01
2.489999999999999769e+00,3.141592653589793116e+00,0.000000000000000000e+00,2.505427995618388359e-01
2.504999999999999893e+00,3.141592653589793116e+00,0.000000000000000000e+00,2.332601917163510397e-01
2.520000000000000018e+00,3.141592653589793116e+00,0.000000000000000000e+00,2.287492567813515232e-01
2.534999999999999698e+00,3.141592653589793116e+00,0.000000000000000000e+00,2.218362136431561715e-01
2.549999999999999822e+00,3.141592653589793116e+00,0.000000000000000000e+00,2.287492567813515232e-01
2.564999999999999947e+00,3.141592653589793116e+00,0.000000000000000000e+00,2.356622999195468471e-01
2.580000000000000071e+00,3.141592653589793116e+00,0.000000000000000000e+00,2.218362136431565601e-01
2.594999999999999751e+00,3.141592653589793116e+00,0.000000000000000000e+00,2.159775838708629103e-01
2.609999999999999876e+00,3.141592653589793116e+00,0.000000000000000000e+00,2.010970842285709215e-01
2.625000000000000000e+00,3.141592653589793116e+00,0.000000000000000000e+00,2.149231705049612362e-01
2.639999999999999680e+00,3.141592653589793116e+00,0.000000000000000000e+00,2.056080191635704657e-01
2.654999999999999805e+00,3.141592653589793116e+00,0.000000000000000000e+00,1.986949760253755026e-01
2.669999999999999929e+00,3.141592653589793116e+00,0.000000000000000000e+00,1.941840410903763470e-01
2.685000000000000053e+00,3.141592653589793116e+00,0.000000000000000000e+00,1.872709979521813839e-01
2.699999999999999734e+00,3.141592653589793116e+00,0.000000000000000000e+00,1.803579548139860322e-01
2.714999999999999858e+00,3.141592653589793116e+00,0.000000000000000000e+00,1.769014332448885507e-01
2.729999999999999982e+00,3.141592653589793116e+00,0.000000000000000000e+00,1.838144763830835138e-01
2.745000000000000107e+00,3.141592653589793116e+00,0.000000000000000000e+00,1.838144763830835138e-01
2.759999999999999787e+00,3.141592653589793116e+00,0.000000000000000000e+00,2.010970842285713100e-01
2.774999999999999911e+00,3.141592653589793116e+00,0.000000000000000000e+00,1.976405626594734399e-01
2.790000000000000036e+00,3.141592653589793116e+00,0.000000000000000000e+00,2.090645407326679472e-01
2.804999999999999716e+00,3.141592653589793116e+00,0.000000000000000000e+00,2.159775838708629103e-01
2.819999999999999840e+00,3.141592653589793116e+00,0.000000000000000000e+00,2.159775838708629103e-01
2.834999999999999964e+00,3.141592653589793116e+00,0.000000000000000000e+00,2.183796920740587177e-01
2.850000000000000089e+00,3.141592653589793116e+00,0.000000000000000000e+00,2.218362136431565601e-01
2.864999999999999769e+00,3.141592653589793116e+00,0.000000000000000000e+00,2.218362136431565601e-01
2.879999999999999893e+00,3.141592653589793116e+00,0.000000000000000000e+00,2.252927352122544025e-01
2.895000000000000018e+00,3.141592653589793116e+00,0.000000000000000000e+00,2.218362136431569209e-01
2.909999999999999698e+00,3.141592653589793116e+00,0.000000000000000000e+00,2.149231705049619578e-01
2.924999999999999822e+00,3.141592653589793116e+00,0.000000000000000000e+00,2.149231705049619578e-01
2.939999999999999947e+00,3.141592653589793116e+00,0.000000000000000000e+00,2.045536057976691524e-01
2.955000000000000071e+00,3.141592653589793116e+00,0.000000000000000000e+00,2.080101273667666339e-01
2.969999999999999751e+00,3.141592653589793116e+00,0.000000000000000000e+00,2.183796920740594394e-01
