time,cart_pos,pend_pos,cart_vel,pend_vel,force
2.384185791015625000e-06,0.000000000000000000e+00,3.141592653589793116e+00,0.000000000000000000e+00,0.000000000000000000e+00,3.544250976000000719e+00
1.000356674194335938e-02,0.000000000000000000e+00,3.141592653589793116e+00,0.000000000000000000e+00,0.000000000000000000e+00,3.544250976000000719e+00
2.000498771667480469e-02,2.042578124999999581e-04,3.140058672801907313e+00,2.042287921046985130e-02,-1.533762844061258290e-01,3.544136096768885746e+00
3.000569343566894531e-02,6.808593749999999325e-04,3.136990711226136153e+00,4.765679301959661884e-02,-3.067745079174005185e-01,3.543780969609710674e+00
4.000663757324218750e-02,1.407109374999999723e-03,3.133922749650364992e+00,7.261814384818936208e-02,-3.067671945336563621e-01,3.543747631480535620e+00
5.000758171081542969e-02,2.360312499999999564e-03,3.129320807286708028e+00,9.531131380074854553e-02,-4.601507918005067199e-01,3.543102293245721235e+00
6.000828742980957031e-02,3.585859374999999637e-03,3.124718864923051065e+00,1.225460391932484683e-01,-4.601617618761230100e-01,3.542983404625934529e+00
7.000946998596191406e-02,5.151835937499999081e-03,3.118582941771508299e+00,1.565791398874796791e-01,-6.135197629972448663e-01,3.541977079695343367e+00
8.001017570495605469e-02,6.967460937499998612e-03,3.110913037832080175e+00,1.815496876937013893e-01,-7.669362697935235840e-01,3.540596785392700063e+00
9.001207351684570312e-02,9.010039062499999168e-03,3.101709153104766248e+00,2.042190555648256967e-01,-9.202138334559775146e-01,3.538781503008124663e+00
1.000134944915771484e-01,1.134765624999999924e-02,3.092505268377452765e+00,2.337285065198216882e-01,-9.202577064366218584e-01,3.538055780603825085e+00
1.100142002105712891e-01,1.388953124999999823e-02,3.081767402862253036e+00,2.541695627711819117e-01,-1.073710777710968456e+00,3.535552941098265567e+00
1.200153827667236328e-01,1.668105468749999862e-02,3.071029537347053751e+00,2.791193363211595946e-01,-1.073659585245123171e+00,3.534313782727787068e+00
1.300160884857177734e-01,1.969953124999999569e-02,3.058757691043968663e+00,3.018263557907783223e-01,-1.227098031669646483e+00,3.530954752081846948e+00
1.400170326232910156e-01,2.292226562499999690e-02,3.046485844740883575e+00,3.222430133263404772e-01,-1.227068778134669857e+00,3.529022787875119249e+00
1.500177383422851562e-01,2.637195312499999653e-02,3.032680017649912685e+00,3.449444066180326618e-01,-1.380485285628369141e+00,3.524613278248329706e+00
1.600186824798583984e-01,3.002589843749999682e-02,3.018874190558941795e+00,3.653600362362028342e-01,-1.380452375401520326e+00,3.521786562902700091e+00
1.700203418731689453e-01,3.388410156249999777e-02,3.006602344255856707e+00,3.857563003575686378e-01,-1.226981025897854405e+00,3.520910817174634833e+00
1.800212860107421875e-01,3.796925781249999715e-02,2.991262536377000458e+00,4.084770591460651912e-01,-1.533835972668326164e+00,3.512983899258841802e+00
1.900222301483154297e-01,4.225867187499999372e-02,2.977456709286029568e+00,4.289009121033681704e-01,-1.380452375401520326e+00,3.511296245741149402e+00
2.000234127044677734e-01,4.675234374999999443e-02,2.962116901407172875e+00,4.493140535901593013e-01,-1.533799407493090072e+00,3.423800943036632294e+00
2.100245952606201172e-01,5.145027343749999232e-02,2.948311074316202429e+00,4.697374196624389819e-01,-1.380419466743723289e+00,3.265648180439681525e+00
2.200253009796142578e-01,5.630707031249999189e-02,2.932971266437345736e+00,4.856454145806512468e-01,-1.533872539587091577e+00,3.142461173225023607e+00
2.300262451171875000e-01,6.132273437499999313e-02,2.919165439346375290e+00,5.015190559515579904e-01,-1.380452375401475917e+00,3.019540190151153602e+00
2.400269508361816406e-01,6.645187499999999359e-02,2.903825631467518598e+00,5.128778677347065607e-01,-1.533872539587091577e+00,2.931580768723458075e+00
2.500281333923339844e-01,7.169449218749998631e-02,2.891553785164433510e+00,5.241997291885184262e-01,-1.227039525994445324e+00,2.843907480181144365e+00
2.600293159484863281e-01,7.650589843749998342e-02,2.879281938861348422e+00,4.810837341470389217e-01,-1.227039525994445324e+00,3.177785534552485913e+00
2.700307369232177734e-01,8.252015624999999022e-02,2.865476111770377532e+00,6.013403323082797680e-01,-1.380386559654999346e+00,2.246552497236189883e+00
2.800316810607910156e-01,8.753582031249998452e-02,2.854738246255178247e+00,5.015190559515573243e-01,-1.073685180867819389e+00,3.019540190151158043e+00
2.900326251983642578e-01,9.323234374999998797e-02,2.844000380739978517e+00,5.695985658092358461e-01,-1.073685180867863798e+00,2.492351747162222519e+00
3.000335693359375000e-01,9.899695312499998123e-02,2.833262515224779232e+00,5.764065167950025437e-01,-1.073685180867819389e+00,2.439632902863337005e+00
3.100342750549316406e-01,1.048069531249999908e-01,2.825592611285351108e+00,5.809590006198455114e-01,-7.669362697935235840e-01,2.404379757469538248e+00
3.200354576110839844e-01,1.106850390624999902e-01,2.817922707345922984e+00,5.877390903022789992e-01,-7.668997037465228317e-01,2.351876663212841390e+00
3.300361633300781250e-01,1.166085156249999782e-01,2.810252803406494415e+00,5.923058561006997458e-01,-7.669362697935679929e-01,2.316512922260570040e+00
3.400368690490722656e-01,1.226000781249999838e-01,2.805650861042837896e+00,5.991139693892152396e-01,-4.601617618760786010e-01,2.263792821135165223e+00
3.500378131866455078e-01,1.286370312499999780e-01,2.801048918679180932e+00,6.036383207380736637e-01,-4.601507918005067199e-01,2.228757525667764749e+00
3.600387573242187500e-01,1.346966796874999872e-01,2.797980957103409327e+00,6.059076377333311170e-01,-3.067671945337007711e-01,2.211184577568122478e+00
3.700399398803710938e-01,1.407790234374999838e-01,2.796446976315523969e+00,6.081624563745586798e-01,-1.533799407492779099e-01,2.193723900615890177e+00
3.800406455993652344e-01,1.468840624999999678e-01,2.796446976315523969e+00,6.104608248700694739e-01,0.000000000000000000e+00,2.175925985926197015e+00
3.900413513183593750e-01,1.529891015624999795e-01,2.797980957103409327e+00,6.104608248700722495e-01,1.533872539586780825e-01,-3.440546913611293611e+00
4.000432491302490234e-01,1.589352734374999687e-01,2.801048918679180932e+00,5.945043617553802395e-01,3.067379444853554626e-01,-3.442032341834033282e+00
4.100439548492431641e-01,1.642686718749999664e-01,2.808718822618609057e+00,5.333022076002477130e-01,7.669362697935235840e-01,-3.444153774746172125e+00
4.200451374053955078e-01,1.691481640624999672e-01,2.819456688133808342e+00,4.878915228377992408e-01,1.073659585245123171e+00,-3.447568051846912951e+00
4.300460815429687500e-01,1.735510546874999838e-01,2.833262515224779232e+00,4.402474970796497744e-01,1.380452375401520326e+00,-3.451543253063946270e+00
4.400470256805419922e-01,1.774092578124999708e-01,2.850136303891521283e+00,3.857838891935048142e-01,1.687219569935176633e+00,-3.455864683086641964e+00
4.500477313995361328e-01,1.808135546874999611e-01,2.870078054134034495e+00,3.404056644256892028e-01,1.994034301463170067e+00,-3.460265622739893576e+00
4.600486755371093750e-01,1.836731640624999773e-01,2.893087765952319312e+00,2.859339414022473158e-01,2.300753959002533655e+00,-3.464432346109766581e+00
4.700496196746826172e-01,1.860788671874999689e-01,2.920699420134260649e+00,2.405476014971264787e-01,2.760904750802996244e+00,-3.464643282624959575e+00
4.800505638122558594e-01,1.879625781249999739e-01,2.951379035891973590e+00,1.883533106062416917e-01,3.067671945336696737e+00,-3.467166690334005263e+00
4.900519847869873047e-01,1.893469921874999795e-01,2.983592632437571890e+00,1.384217368709629303e-01,3.220901972528287249e+00,-3.472435017983403149e+00
5.000529289245605469e-01,1.902774999999999606e-01,3.018874190558941795e+00,9.304199680549074536e-02,3.527822737137203735e+00,-3.471249924683349697e+00
5.100538730621337891e-01,1.907087109374999701e-01,3.057223710256082860e+00,4.311702290986339781e-02,3.834589931670859819e+00,-3.467444494122069898e+00
5.200545787811279297e-01,1.907087109374999701e-01,3.098641191528995087e+00,0.000000000000000000e+00,4.141455856885063014e+00,-3.460377830708251334e+00
5.300557613372802734e-01,1.903455859374999781e-01,3.140058672801907313e+00,-3.630820635071912994e-02,4.141258400231258463e+00,-3.462017969658756300e+00
5.400567054748535156e-01,1.896647265624999690e-01,-3.098641191528995087e+00,-6.807950985767846630e-02,4.448124320738217286e+00,-3.447747592186281018e+00
5.500574111938476562e-01,1.886661328124999704e-01,-3.054155748680311699e+00,-9.985232823153564197e-02,4.448230364802463477e+00,-3.442607627787391156e+00
5.600581169128417969e-01,1.874178906249999721e-01,-3.008136325043742509e+00,-1.248154102894195594e-01,4.601617618761185469e+00,-3.426963746063404148e+00
5.700588226318359375e-01,1.859199999999999742e-01,-2.962116901407172875e+00,-1.497784923473034768e-01,4.601617618761229878e+00,-3.414256719766033843e+00
5.800600051879882812e-01,1.841724609374999766e-01,-2.916097477770603685e+00,-1.747332430628394662e-01,4.601398222479181399e+00,-3.397867324036754511e+00
5.900609493255615234e-01,1.822206640624999818e-01,-2.870078054134034495e+00,-1.951612615920084448e-01,4.601507918005022901e+00,-3.377806079636532566e+00
6.000616550445556641e-01,1.800419140624999748e-01,-2.824058630497465305e+00,-2.178596252324424276e-01,4.601617618761185469e+00,-3.354129975573794553e+00
6.100625991821289062e-01,1.776589062499999705e-01,-2.779573187648781918e+00,-2.382782845018718287e-01,4.448124320738172877e+00,-3.334519020262805444e+00
6.200633049011230469e-01,1.750489453124999817e-01,-2.735087744800098086e+00,-2.609776760596946854e-01,4.448230364802507886e+00,-3.304964099427145641e+00
6.300642490386962891e-01,1.723028124999999855e-01,-2.692136282739300057e+00,-2.745873564259657118e-01,4.294740723471366373e+00,-3.279810432671466991e+00
6.400649547576904297e-01,1.693978124999999668e-01,-2.649184820678502472e+00,-2.904795003099241435e-01,4.294843110843740597e+00,-3.245274018992126308e+00
6.500656604766845703e-01,1.663339453124999812e-01,-2.609301320193475604e+00,-3.063650979831197274e-01,3.988068602926384543e+00,-3.222811330158894094e+00
6.600663661956787109e-01,1.631112109374999730e-01,-2.569417819708449180e+00,-3.222506956563208624e-01,3.988068602926340134e+00,-3.185736540115746696e+00
6.700673103332519531e-01,1.597523046874999852e-01,-2.532602280799193473e+00,-3.358589152978746495e-01,3.681206334404053759e+00,-3.160693179920544882e+00
6.800680160522460938e-01,1.562345312499999750e-01,-2.497320722677823568e+00,-3.517525199065475450e-01,3.527906841050261644e+00,-3.129329172990944485e+00
6.900689601898193359e-01,1.526259765624999876e-01,-2.463573145344339466e+00,-3.608214022456897596e-01,3.374439139870353266e+00,-3.097688461990218745e+00
7.000701427459716797e-01,1.488585546874999777e-01,-2.432893529586626968e+00,-3.766976408887203753e-01,3.067598814986091327e+00,-3.072419595406777226e+00
7.100710868835449219e-01,1.449549609374999881e-01,-2.403747894616799829e+00,-3.903225231840168896e-01,2.914288348069846268e+00,-3.042634144682056174e+00
7.200720310211181641e-01,1.409378906249999786e-01,-2.377670221222743852e+00,-4.016691081602984936e-01,2.607521153536190184e+00,-3.019226622214047140e+00
7.300729751586914062e-01,1.367392578124999869e-01,-2.354660509404459034e+00,-4.198236441223440196e-01,2.300753959002533655e+00,-2.997902636378585672e+00
7.400736808776855469e-01,1.324498437499999903e-01,-2.334718759161945822e+00,-4.289111371763692504e-01,1.994034301463170067e+00,-2.978944747987660957e+00
7.500746250152587891e-01,1.279788671874999839e-01,-2.316310989707318413e+00,-4.470554480654165275e-01,1.840603167201982471e+00,-2.958002969788679604e+00
7.600769996643066406e-01,1.234171093749999865e-01,-2.300971181828461720e+00,-4.560674812289940983e-01,1.533616607763929718e+00,-2.942855777585648536e+00
7.700777053833007812e-01,1.187418749999999829e-01,-2.288699335525376632e+00,-4.674904458112815187e-01,1.227098031669646483e+00,-2.930621631389792814e+00
7.800784111022949219e-01,1.139077734374999845e-01,-2.279495450798062706e+00,-4.833760434844798781e-01,9.203235237522460199e-01,-2.921446313774228365e+00
7.900793552398681641e-01,1.089828906249999813e-01,-2.273359527646520384e+00,-4.924417879705345613e-01,6.135343890673127243e-01,-2.915425590405548828e+00
8.000802993774414062e-01,1.039218359374999845e-01,-2.268757585282862976e+00,-5.060576899420694552e-01,4.601507918005511288e-01,-2.909979152969803806e+00
8.100812435150146484e-01,9.874730468749998158e-02,-2.268757585282862976e+00,-5.174042749183496159e-01,0.000000000000000000e+00,2.910994397934031586e+00
8.200821876525878906e-01,9.366355468749998359e-02,-2.273359527646520384e+00,-5.083270069373254652e-01,-4.601507918005511288e-01,2.916215225377725595e+00
8.300828933715820312e-01,8.907910156249998490e-02,-2.282563412373834311e+00,-4.584129614265959884e-01,-9.203235237522460199e-01,2.925568557579644402e+00
8.400838375091552734e-01,8.483507812499999079e-02,-2.293301277889033596e+00,-4.243622781128560950e-01,-1.073685180867819389e+00,2.938444088774684104e+00
8.500845432281494141e-01,8.102226562499999230e-02,-2.310175066555775647e+00,-3.812543441567728397e-01,-1.687259793545769604e+00,2.952584978789534631e+00
8.600854873657226562e-01,7.766335937499999065e-02,-2.331650797586174662e+00,-3.358589152978760373e-01,-2.147370361735683186e+00,2.971968083116995452e+00
8.700861930847167969e-01,7.466757812499999480e-02,-2.356194490192344837e+00,-2.995569846946069537e-01,-2.454196063339292966e+00,2.996327981762481496e+00
8.800871372222900391e-01,7.221648437499998685e-02,-2.386874105950057778e+00,-2.450862354876399696e-01,-3.067671945336696737e+00,3.017933803003549631e+00
8.900880813598632812e-01,7.012851562499998470e-02,-2.420621683283541881e+00,-2.087771635635446987e-01,-3.374439139870353266e+00,3.048686745877775994e+00
9.000892639160156250e-01,6.849445312499999328e-02,-2.458971202980682946e+00,-1.633869285782388603e-01,-3.834498518732658567e+00,3.076656346464535119e+00
9.100899696350097656e-01,6.731429687499998482e-02,-2.501922665041480975e+00,-1.180072970009067718e-01,-4.294843110843785006e+00,3.105445666069612365e+00
9.200909137725830078e-01,6.658804687499998709e-02,-2.547942088678049721e+00,-7.261814384818915391e-02,-4.601507918004978492e+00,3.139523100472499717e+00
9.300916194915771484e-01,6.629300781249998498e-02,-2.598563454678275875e+00,-2.950182425022669294e-02,-5.061779380637308812e+00,3.166475492079802390e+00
9.400925636291503906e-01,6.638378906249998990e-02,-2.653786763042159436e+00,9.077267981024164656e-03,-5.521809501606081305e+00,3.191360900765483066e+00
9.500935077667236328e-01,6.688308593749998920e-02,-2.712078032981813713e+00,4.992497389563013005e-02,-5.828576696139692537e+00,3.220394829447685847e+00
9.600946903228759766e-01,6.770011718749999186e-02,-2.771903283709353794e+00,8.169346428912012403e-02,-5.981817689222949319e+00,3.252957302428738817e+00
9.700956344604492188e-01,6.890296874999998766e-02,-2.836330476800550393e+00,1.202738007485632393e-01,-6.442111085207005594e+00,3.263334393951899948e+00
9.800963401794433594e-01,7.040085937499998558e-02,-2.903825631467518598e+00,1.497784923473034768e-01,-6.749039174183078416e+00,3.275993710214483823e+00
9.900972843170166016e-01,7.217109374999998439e-02,-2.972854766922372605e+00,1.770067256299615033e-01,-6.902261877007556556e+00,3.290652263051456750e+00
1.000097990036010742e+00,7.423636718749998531e-02,-3.043417883165111970e+00,2.065127697515854732e-01,-7.055813682100478879e+00,3.297010954599761234e+00
1.010098695755004883e+00,7.655128906249998588e-02,-3.115514980195737138e+00,2.314758518094693629e-01,-7.209200936059201759e+00,3.294450329915187492e+00
1.020099639892578125e+00,7.911585937499998611e-02,3.094039249165338124e+00,2.564328204639187980e-01,-7.362412668808107519e+00,3.282344965747814758e+00
1.030100584030151367e+00,8.188468749999998353e-02,3.020408171346827597e+00,2.768566734212217773e-01,-7.362412668808018701e+00,3.271351749266051545e+00
1.040102243423461914e+00,8.485777343749999202e-02,2.945243112740430824e+00,2.972592667461271820e-01,-7.515258783624419792e+00,3.239394023046381577e+00
1.050103425979614258e+00,8.798972656249998137e-02,2.870078054134034495e+00,3.131582797749584146e-01,-7.515617096715994983e+00,3.208498693807765978e+00
1.060106277465820312e+00,9.130324218749998055e-02,2.796446976315523969e+00,3.312571049934452949e-01,-7.361008800345369529e+00,3.179938354143678758e+00
1.070107698440551758e+00,9.470753906249998466e-02,2.724349879284898801e+00,3.403813201744980144e-01,-7.208685367087159790e+00,3.143057421549082076e+00
1.080108642578125000e+00,9.827070312499998350e-02,2.652252782254273633e+00,3.562827682551790165e-01,-7.209029071541213085e+00,3.087094011371268820e+00
1.090109825134277344e+00,1.018792578124999848e-01,2.583223646799419626e+00,3.608128006102795382e-01,-6.902097333718794303e+00,3.046681941944997973e+00
1.100110530853271484e+00,1.055785937499999910e-01,2.514194511344565619e+00,3.699074886759172731e-01,-6.902426428141801296e+00,2.978322211400138197e+00
1.110111951828002930e+00,1.093687109374999883e-01,2.448233337465483217e+00,3.789578697942737051e-01,-6.595180229462700439e+00,2.926516565995690211e+00
1.120112895965576172e+00,1.132042187499999880e-01,2.386874105950057778e+00,3.835145721982501366e-01,-6.135343890673349065e+00,2.882567807773149138e+00
1.130113601684570312e+00,1.170851171874999902e-01,2.327048855222517698e+00,3.880624574452870013e-01,-5.982102904389554610e+00,2.816573970326778031e+00
1.140114545822143555e+00,1.210341015624999822e-01,2.268757585282863420e+00,3.948611571745289650e-01,-5.828576696139692537e+00,2.748103983673450212e+00
1.150115251541137695e+00,1.250284765624999905e-01,2.215068257706866106e+00,3.994093129261439556e-01,-5.368553888554709275e+00,2.698300550656707042e+00
1.160116195678710938e+00,1.290909374999999748e-01,2.164446891706639953e+00,4.062077421508077935e-01,-5.061658709805529455e+00,2.640591385564449833e+00
1.170116901397705078e+00,1.331760937499999742e-01,2.116893487282184516e+00,4.084867973108281536e-01,-4.755004872719952758e+00,2.584078705458849878e+00
1.180117845535278320e+00,1.373066406249999760e-01,2.073942025221386931e+00,4.130156931365772666e-01,-4.294740723471321964e+00,2.538176523517535088e+00
1.190118789672851562e+00,1.414825781249999803e-01,2.034058524736360063e+00,4.175543271270893975e-01,-3.987973528937710288e+00,2.487776972131614084e+00
1.200119495391845703e+00,1.457266015624999744e-01,1.997242985827104800e+00,4.243723949840265131e-01,-3.681294095008939671e+00,2.440165708120396015e+00
1.210120439529418945e+00,1.500160156249999710e-01,1.965029389281506278e+00,4.289009121033681704e-01,-3.221055542603525002e+00,2.403052230288107882e+00
1.220121145248413086e+00,1.543281249999999827e-01,1.937417735099564720e+00,4.311805082725420624e-01,-2.760970571256716077e+00,2.370817090827225915e+00
1.230122327804565430e+00,1.587537109374999866e-01,1.912874042493394544e+00,4.425062648993996484e-01,-2.454079051988890647e+00,2.337699680826801796e+00
1.240123510360717773e+00,1.632019921874999779e-01,1.892932292250881110e+00,4.447755277963184040e-01,-1.993939229740990360e+00,2.314105542752907585e+00
1.250124216079711914e+00,1.677410546874999742e-01,1.876058503584139059e+00,4.538742192342531956e-01,-1.687259793545769604e+00,2.291075771026465979e+00
1.260124921798706055e+00,1.723482031249999880e-01,1.863786657281053971e+00,4.606823325227687449e-01,-1.227098031669646483e+00,2.276724542355593073e+00
1.270125627517700195e+00,1.770007421874999765e-01,1.854582772553740266e+00,4.652210747151087622e-01,-9.203235237522238155e-01,2.264246413766874522e+00
1.280126571655273438e+00,1.816986718749999674e-01,1.849980830190083303e+00,4.697486180179741844e-01,-4.601507918005067199e-01,2.259458087811250682e+00
1.290127277374267578e+00,1.864646874999999759e-01,1.849980830190083303e+00,4.765679301959671044e-01,0.000000000000000000e+00,2.260473332775479793e+00
1.300127983093261719e+00,1.912987890624999743e-01,1.853048791765854464e+00,4.833760434844798781e-01,3.067745079174005185e-01,-2.265246086970410744e+00
