time,position,velocity,torque
0.000000000000000000e+00,0.000000000000000000e+00,0.000000000000000000e+00,1.354016759657068691e+00
1.499999999999999944e-02,1.116071428571428770e-01,2.132493622448979664e+00,2.500000000000000000e+00
2.999999999999999889e-02,4.132861556883686838e-01,3.564304834117458576e+00,2.500000000000000000e+00
4.499999999999999833e-02,8.161629350992350984e-01,4.069202740676065133e+00,2.500000000000000000e+00
5.999999999999999778e-02,1.227189168992115054e+00,3.845046921243690630e+00,2.500000000000000000e+00
7.499999999999999722e-02,1.590678587442386771e+00,3.328183345971322815e+00,2.500000000000000000e+00
8.999999999999999667e-02,1.897645339826496080e+00,2.876182201455277365e+00,2.500000000000000000e+00
1.049999999999999961e-01,2.167897530541198492e+00,2.681188686135400179e+00,2.500000000000000000e+00
1.199999999999999956e-01,2.414089343346224048e+00,2.464725825094679745e+00,2.500000000000000000e+00
1.350000000000000089e-01,2.609167416888194424e+00,1.720243382504546892e+00,2.500000000000000000e+00
1.499999999999999944e-01,2.747061672533007037e+00,1.254238844581578860e+00,2.500000000000000000e+00
1.649999999999999800e-01,2.849319924414393412e+00,9.553550647450722577e-01,2.500000000000000000e+00
1.799999999999999933e-01,2.926263386087355034e+00,7.130599423025494321e-01,2.500000000000000000e+00
1.950000000000000067e-01,2.982796853102993140e+00,5.165335996836142307e-01,2.500000000000000000e+00
2.099999999999999922e-01,3.024318049327415103e+00,3.856023925123991392e-01,2.500000000000000000e+00
2.249999999999999778e-01,3.055772591077727363e+00,2.968429841517081225e-01,2.500000000000000000e+00
2.399999999999999911e-01,3.078778788262244603e+00,2.055318005877673770e-01,2.500000000000000000e+00
2.550000000000000044e-01,3.094985625868891699e+00,1.476469288759246212e-01,2.500000000000000000e+00
2.700000000000000178e-01,3.107382462313682758e+00,1.204924327920283700e-01,2.500000000000000000e+00
2.849999999999999756e-01,3.116834371983765450e+00,8.563299138521456022e-02,2.500000000000000000e+00
2.999999999999999889e-01,3.123522254735419779e+00,6.029720268901495733e-02,2.500000000000000000e+00
3.150000000000000022e-01,3.128225631370878723e+00,4.234749319545791368e-02,2.500000000000000000e+00
3.299999999999999600e-01,3.131522095366654046e+00,2.961200848682244910e-02,2.500000000000000000e+00
3.449999999999999734e-01,3.133546102710425441e+00,1.533593243440943728e-02,2.500000000000000000e+00
3.599999999999999867e-01,3.135422090774426351e+00,2.375863234700871171e-02,2.500000000000000000e+00
3.750000000000000000e-01,3.137514397532197297e+00,2.125403516810262308e-02,2.500000000000000000e+00
3.900000000000000133e-01,3.138535710953906044e+00,2.764287528136025185e-03,2.500000000000000000e+00
4.049999999999999711e-01,3.139274277098671018e+00,1.193338170898893165e-02,2.500000000000000000e+00
4.199999999999999845e-01,3.140001242592799890e+00,4.485660331640351287e-03,2.500000000000000000e+00
4.349999999999999978e-01,3.140433893250885511e+00,4.731616444546091899e-03,2.500000000000000000e+00
4.499999999999999556e-01,3.140800508848719641e+00,3.276040075102347546e-03,2.500000000000000000e+00
4.649999999999999689e-01,3.141046054053876269e+00,2.109855134173820815e-03,2.500000000000000000e+00
4.799999999999999822e-01,3.141204099064973665e+00,1.357034355566892571e-03,2.500000000000000000e+00
4.949999999999999956e-01,3.141287618945979965e+00,5.263620563216705800e-04,2.319410524376532834e+00
5.100000000000000089e-01,3.141326472610248111e+00,3.275622159928646450e-04,2.043215899561942273e+00
5.250000000000000222e-01,3.141344778920132974e+00,9.163300539909960581e-05,1.757106296939710877e+00
5.400000000000000355e-01,3.141349631193209202e+00,2.049808606036259123e-05,1.691716417867885847e+00
5.549999999999999378e-01,3.141357424325344816e+00,1.327501676832943886e-04,1.658937109204167148e+00
5.699999999999999512e-01,3.141377476880054864e+00,2.785280423637584977e-04,1.714988830544803555e+00
5.849999999999999645e-01,3.141420152150667278e+00,5.958975253530533409e-04,1.828356942807716656e+00
5.999999999999999778e-01,3.141485207940962976e+00,7.734098227095813089e-04,1.997651696956439960e+00
6.149999999999999911e-01,3.141550070686105034e+00,6.298257428907002176e-04,2.144497613928832536e+00
6.300000000000000044e-01,3.141593220225264105e+00,3.281054906370229024e-04,2.500000000000000000e+00
6.450000000000000178e-01,3.141602108352538725e+00,-8.874970149218730942e-05,2.500000000000000000e+00
6.599999999999999201e-01,3.141593854922509976e+00,-8.775677643264301049e-05,2.500000000000000000e+00
6.749999999999999334e-01,3.141592147845750027e+00,3.654281625860381641e-05,2.500000000000000000e+00
6.899999999999999467e-01,3.141608776375296674e+00,2.889246874686017671e-04,2.500000000000000000e+00
7.049999999999999600e-01,3.141628091703557502e+00,1.413622847571344501e-04,2.500000000000000000e+00
7.199999999999999734e-01,3.141631024992579846e+00,-5.535933139202313998e-05,2.500000000000000000e+00
7.349999999999999867e-01,3.141608559180303573e+00,-3.856293895925306170e-04,2.500000000000000000e+00
7.500000000000000000e-01,3.141592653589793116e+00,0.000000000000000000e+00,2.500000000000000000e+00
7.650000000000000133e-01,3.141592653589793116e+00,0.000000000000000000e+00,2.500000000000000000e+00
7.800000000000000266e-01,3.141592653589793116e+00,0.000000000000000000e+00,2.500000000000000000e+00
7.949999999999999289e-01,3.141592653589793116e+00,0.000000000000000000e+00,2.500000000000000000e+00
8.099999999999999423e-01,3.141592653589793116e+00,0.000000000000000000e+00,2.500000000000000000e+00
8.249999999999999556e-01,3.141592653589793116e+00,0.000000000000000000e+00,2.500000000000000000e+00
8.399999999999999689e-01,3.141592653589793116e+00,0.000000000000000000e+00,2.500000000000000000e+00
8.549999999999999822e-01,3.141592653589793116e+00,0.000000000000000000e+00,2.500000000000000000e+00
8.699999999999999956e-01,3.141592653589793116e+00,0.000000000000000000e+00,2.500000000000000000e+00
8.850000000000000089e-01,3.141592653589793116e+00,0.000000000000000000e+00,2.116482798629127693e+00
8.999999999999999112e-01,3.141592653589793116e+00,0.000000000000000000e+00,1.553609527593903028e+00
9.149999999999999245e-01,3.141592653589793116e+00,0.000000000000000000e+00,1.066012943689612191e+00
9.299999999999999378e-01,3.141592653589793116e+00,0.000000000000000000e+00,4.990160689016733819e-01
9.449999999999999512e-01,3.141592653589793116e+00,0.000000000000000000e+00,-3.224191207365245671e-02
9.599999999999999645e-01,3.141592653589793116e+00,0.000000000000000000e+00,-4.474073742989227442e-01
9.749999999999999778e-01,3.141592653589793116e+00,0.000000000000000000e+00,-8.174337441127992321e-01
9.899999999999999911e-01,3.141592653589793116e+00,0.000000000000000000e+00,-8.598263016323529628e-01
1.004999999999999893e+00,3.141592653589793116e+00,0.000000000000000000e+00,-8.496736163755309601e-01
1.020000000000000018e+00,3.141592653589793116e+00,0.000000000000000000e+00,-6.454889950837359169e-01
1.034999999999999920e+00,3.141592653589793116e+00,0.000000000000000000e+00,-3.096496615571202593e-01
1.050000000000000044e+00,3.141592653589793116e+00,0.000000000000000000e+00,1.929871020748369637e-01
1.064999999999999947e+00,3.141592653589793116e+00,0.000000000000000000e+00,8.181476757447789794e-01
1.080000000000000071e+00,3.141592653589793116e+00,0.000000000000000000e+00,1.673001668181776314e+00
1.094999999999999973e+00,3.141592653589793116e+00,0.000000000000000000e+00,2.447157634360564771e+00
1.109999999999999876e+00,3.141592653589793116e+00,0.000000000000000000e+00,2.500000000000000000e+00
1.125000000000000000e+00,3.141592653589793116e+00,0.000000000000000000e+00,2.500000000000000000e+00
1.139999999999999902e+00,3.141592653589793116e+00,0.000000000000000000e+00,2.500000000000000000e+00
1.155000000000000027e+00,3.141592653589793116e+00,0.000000000000000000e+00,2.500000000000000000e+00
1.169999999999999929e+00,3.141592653589793116e+00,0.000000000000000000e+00,2.500000000000000000e+00
1.185000000000000053e+00,3.141592653589793116e+00,0.000000000000000000e+00,2.500000000000000000e+00
1.199999999999999956e+00,3.141592653589793116e+00,0.000000000000000000e+00,2.500000000000000000e+00
1.214999999999999858e+00,3.141592653589793116e+00,0.000000000000000000e+00,2.500000000000000000e+00
1.229999999999999982e+00,3.141592653589793116e+00,0.000000000000000000e+00,2.500000000000000000e+00
1.244999999999999885e+00,3.141592653589793116e+00,0.000000000000000000e+00,2.500000000000000000e+00
1.260000000000000009e+00,3.141592653589793116e+00,0.000000000000000000e+00,2.500000000000000000e+00
1.274999999999999911e+00,3.141592653589793116e+00,0.000000000000000000e+00,2.095007814240148925e+00
1.290000000000000036e+00,3.141592653589793116e+00,0.000000000000000000e+00,1.037088207025665065e+00
1.304999999999999938e+00,3.141592653589793116e+00,0.000000000000000000e+00,1.078931851887392213e-01
1.319999999999999840e+00,3.141592653589793116e+00,0.000000000000000000e+00,-8.436564151210512730e-01
1.334999999999999964e+00,3.141592653589793116e+00,0.000000000000000000e+00,-1.774626620249360576e+00
1.349999999999999867e+00,3.141592653589793116e+00,0.000000000000000000e+00,-2.497181330153534606e+00
1.364999999999999991e+00,3.141592653589793116e+00,0.000000000000000000e+00,-2.500000000000000000e+00
1.379999999999999893e+00,3.141592653589793116e+00,0.000000000000000000e+00,-2.500000000000000000e+00
1.395000000000000018e+00,3.141592653589793116e+00,0.000000000000000000e+00,-2.500000000000000000e+00
1.409999999999999920e+00,3.141592653589793116e+00,0.000000000000000000e+00,-2.500000000000000000e+00
1.425000000000000044e+00,3.141592653589793116e+00,0.000000000000000000e+00,-2.500000000000000000e+00
1.439999999999999947e+00,3.141592653589793116e+00,0.000000000000000000e+00,-2.345673025114096255e+00
1.454999999999999849e+00,3.141592653589793116e+00,0.000000000000000000e+00,-1.332647641402876060e+00
1.469999999999999973e+00,3.141592653589793116e+00,0.000000000000000000e+00,-2.443893927365870522e-01
1.484999999999999876e+00,3.141592653589793116e+00,0.000000000000000000e+00,1.168153925096260037e+00
1.500000000000000000e+00,3.141592653589793116e+00,0.000000000000000000e+00,2.471694358353491161e+00
1.514999999999999902e+00,3.141592653589793116e+00,0.000000000000000000e+00,2.500000000000000000e+00
1.530000000000000027e+00,3.141592653589793116e+00,0.000000000000000000e+00,2.500000000000000000e+00
1.544999999999999929e+00,3.141592653589793116e+00,0.000000000000000000e+00,2.500000000000000000e+00
1.560000000000000053e+00,3.141592653589793116e+00,0.000000000000000000e+00,2.500000000000000000e+00
1.574999999999999956e+00,3.141592653589793116e+00,0.000000000000000000e+00,2.500000000000000000e+00
1.589999999999999858e+00,3.141592653589793116e+00,0.000000000000000000e+00,2.500000000000000000e+00
1.604999999999999982e+00,3.141592653589793116e+00,0.000000000000000000e+00,2.500000000000000000e+00
1.619999999999999885e+00,3.141592653589793116e+00,0.000000000000000000e+00,2.500000000000000000e+00
1.635000000000000009e+00,3.141592653589793116e+00,0.000000000000000000e+00,2.500000000000000000e+00
1.649999999999999911e+00,3.141592653589793116e+00,0.000000000000000000e+00,2.500000000000000000e+00
1.665000000000000036e+00,3.141592653589793116e+00,0.000000000000000000e+00,2.500000000000000000e+00
1.679999999999999938e+00,3.141592653589793116e+00,0.000000000000000000e+00,2.500000000000000000e+00
1.694999999999999840e+00,3.141592653589793116e+00,0.000000000000000000e+00,1.357311348844095544e+00
1.709999999999999964e+00,3.141592653589793116e+00,0.000000000000000000e+00,1.023369706286363590e+00
1.724999999999999867e+00,3.141592653589793116e+00,0.000000000000000000e+00,6.241784857484109494e-01
1.739999999999999991e+00,3.141592653589793116e+00,0.000000000000000000e+00,1.856096048329989312e-01
1.754999999999999893e+00,3.141592653589793116e+00,0.000000000000000000e+00,-1.889863544587987443e-01
1.770000000000000018e+00,3.141592653589793116e+00,0.000000000000000000e+00,-5.374024048109072860e-01
1.784999999999999920e+00,3.141592653589793116e+00,0.000000000000000000e+00,-8.555621840839620074e-01
1.799999999999999822e+00,3.141592653589793116e+00,0.000000000000000000e+00,-1.096705285964097998e+00
1.814999999999999947e+00,3.141592653589793116e+00,0.000000000000000000e+00,-1.312544746523144124e+00
1.829999999999999849e+00,3.141592653589793116e+00,0.000000000000000000e+00,-1.511448883975678115e+00
1.844999999999999973e+00,3.141592653589793116e+00,0.000000000000000000e+00,-1.613354922076480680e+00
1.859999999999999876e+00,3.141592653589793116e+00,0.000000000000000000e+00,-1.687711997479907744e+00
1.875000000000000000e+00,3.141592653589793116e+00,0.000000000000000000e+00,-1.674007568027852333e+00
1.889999999999999902e+00,3.141592653589793116e+00,0.000000000000000000e+00,-1.541139894156354551e+00
1.905000000000000027e+00,3.141592653589793116e+00,0.000000000000000000e+00,-1.377985150072110976e+00
1.919999999999999929e+00,3.141592653589793116e+00,0.000000000000000000e+00,-1.168792271624136569e+00
1.934999999999999831e+00,3.141592653589793116e+00,0.000000000000000000e+00,-9.528465217888131278e-01
1.949999999999999956e+00,3.141592653589793116e+00,0.000000000000000000e+00,-7.615884306007216775e-01
1.964999999999999858e+00,3.141592653589793116e+00,0.000000000000000000e+00,-5.022502565159603360e-01
1.979999999999999982e+00,3.141592653589793116e+00,0.000000000000000000e+00,-2.310525856174218406e-01
1.994999999999999885e+00,3.141592653589793116e+00,0.000000000000000000e+00,2.457881593229023498e-02
2.009999999999999787e+00,3.141592653589793116e+00,0.000000000000000000e+00,2.410173519066997061e-01
2.024999999999999911e+00,3.141592653589793116e+00,0.000000000000000000e+00,4.193548838602567108e-01
2.040000000000000036e+00,3.141592653589793116e+00,0.000000000000000000e+00,5.584687511048186392e-01
2.054999999999999716e+00,3.141592653589793116e+00,0.000000000000000000e+00,7.394211940389752158e-01
2.069999999999999840e+00,3.141592653589793116e+00,0.000000000000000000e+00,8.067174067181246411e-01
2.084999999999999964e+00,3.141592653589793116e+00,0.000000000000000000e+00,8.881492367210293004e-01
2.100000000000000089e+00,3.141592653589793116e+00,0.000000000000000000e+00,9.499076361020504233e-01
2.114999999999999769e+00,3.141592653589793116e+00,0.000000000000000000e+00,9.683352095010195892e-01
2.129999999999999893e+00,3.141592653589793116e+00,0.000000000000000000e+00,9.317880540400100831e-01
2.145000000000000018e+00,3.141592653589793116e+00,0.000000000000000000e+00,8.885804245927293454e-01
2.160000000000000142e+00,3.141592653589793116e+00,0.000000000000000000e+00,7.982427992272687067e-01
2.174999999999999822e+00,3.141592653589793116e+00,0.000000000000000000e+00,6.855552339919394056e-01
2.189999999999999947e+00,3.141592653589793116e+00,0.000000000000000000e+00,6.081689669947056842e-01
2.205000000000000071e+00,3.141592653589793116e+00,0.000000000000000000e+00,4.221098986341211834e-01
2.219999999999999751e+00,3.141592653589793116e+00,0.000000000000000000e+00,3.183589278950406110e-01
2.234999999999999876e+00,3.141592653589793116e+00,0.000000000000000000e+00,1.976418349157549881e-01
2.250000000000000000e+00,3.141592653589793116e+00,0.000000000000000000e+00,3.760867982639573559e-02
2.265000000000000124e+00,3.141592653589793116e+00,0.000000000000000000e+00,-8.584652066826106709e-02
2.279999999999999805e+00,3.141592653589793116e+00,0.000000000000000000e+00,-2.051945598898611001e-01
2.294999999999999929e+00,3.141592653589793116e+00,0.000000000000000000e+00,-2.432955639107135803e-01
2.310000000000000053e+00,3.141592653589793116e+00,0.000000000000000000e+00,-2.778129919312883334e-01
2.324999999999999734e+00,3.141592653589793116e+00,0.000000000000000000e+00,-3.317882566378961839e-01
2.339999999999999858e+00,3.141592653589793116e+00,0.000000000000000000e+00,-3.726581673078127599e-01
2.354999999999999982e+00,3.141592653589793116e+00,0.000000000000000000e+00,-3.899014817512536646e-01
2.370000000000000107e+00,3.141592653589793116e+00,0.000000000000000000e+00,-4.057757424370090349e-01
2.384999999999999787e+00,3.141592653589793116e+00,0.000000000000000000e+00,-3.719666944913702089e-01
2.399999999999999911e+00,3.141592653589793116e+00,0.000000000000000000e+00,-3.170843630324700069e-01
2.415000000000000036e+00,3.141592653589793116e+00,0.000000000000000000e+00,-2.686777107576828194e-01
2.429999999999999716e+00,3.141592653589793116e+00,0.000000000000000000e+00,-1.928144931865991007e-01
2.444999999999999840e+00,3.141592653589793116e+00,0.000000000000000000e+00,-1.600049093943316514e-01
2.459999999999999964e+00,3.141592653589793116e+00,0.000000000000000000e+00,-1.298102365826639404e-01
2.475000000000000089e+00,3.141592653589793116e+00,0.000000000000000000e+00,-7.611216407929165262e-02
2.489999999999999769e+00,3.141592653589793116e+00,0.000000000000000000e+00,1.212504650556330693e-03
2.504999999999999893e+00,3.141592653589793116e+00,0.000000000000000000e+00,3.392969104174508449e-02
2.520000000000000018e+00,3.141592653589793116e+00,0.000000000000000000e+00,7.184590026044071487e-02
2.534999999999999698e+00,3.141592653589793116e+00,0.000000000000000000e+00,6.792353378954120446e-02
2.549999999999999822e+00,3.141592653589793116e+00,0.000000000000000000e+00,6.929258754722680824e-02
2.564999999999999947e+00,3.141592653589793116e+00,0.000000000000000000e+00,7.850637424671141895e-02
2.580000000000000071e+00,3.141592653589793116e+00,0.000000000000000000e+00,8.635110718851043976e-02
2.594999999999999751e+00,3.141592653589793116e+00,0.000000000000000000e+00,9.419584013030986303e-02
2.609999999999999876e+00,3.141592653589793116e+00,0.000000000000000000e+00,8.762776354511780941e-02
2.625000000000000000e+00,3.141592653589793116e+00,0.000000000000000000e+00,5.880214449113525116e-02
2.639999999999999680e+00,3.141592653589793116e+00,0.000000000000000000e+00,2.085513613874673614e-02
2.654999999999999805e+00,3.141592653589793116e+00,0.000000000000000000e+00,3.262223555144567327e-02
2.669999999999999929e+00,3.141592653589793116e+00,0.000000000000000000e+00,2.869986908054574307e-02
2.685000000000000053e+00,3.141592653589793116e+00,0.000000000000000000e+00,2.477750260964581633e-02
2.699999999999999734e+00,3.141592653589793116e+00,0.000000000000000000e+00,2.477750260964581633e-02
2.714999999999999858e+00,3.141592653589793116e+00,0.000000000000000000e+00,2.085513613874631286e-02
2.729999999999999982e+00,3.141592653589793116e+00,0.000000000000000000e+00,2.519960140855741909e-03
2.745000000000000107e+00,3.141592653589793116e+00,0.000000000000000000e+00,-7.970482915236241916e-03
2.759999999999999787e+00,3.141592653589793116e+00,0.000000000000000000e+00,-2.771460087729363600e-03
2.774999999999999911e+00,3.141592653589793116e+00,0.000000000000000000e+00,5.073272854069645066e-03
2.790000000000000036e+00,3.141592653589793116e+00,0.000000000000000000e+00,1.948608238106071255e-02
2.804999999999999716e+00,3.141592653589793116e+00,0.000000000000000000e+00,2.997652543715226964e-02
2.819999999999999840e+00,3.141592653589793116e+00,0.000000000000000000e+00,3.782125837895169984e-02
2.834999999999999964e+00,3.141592653589793116e+00,0.000000000000000000e+00,3.782125837895169984e-02
2.850000000000000089e+00,3.141592653589793116e+00,0.000000000000000000e+00,4.174362484985121025e-02
2.864999999999999769e+00,3.141592653589793116e+00,0.000000000000000000e+00,3.782125837895128351e-02
2.879999999999999893e+00,3.141592653589793116e+00,0.000000000000000000e+00,3.389889190805135677e-02
2.895000000000000018e+00,3.141592653589793116e+00,0.000000000000000000e+00,3.389889190805135677e-02
2.909999999999999698e+00,3.141592653589793116e+00,0.000000000000000000e+00,2.997652543715142656e-02
2.924999999999999822e+00,3.141592653589793116e+00,0.000000000000000000e+00,2.605415896625192310e-02
2.939999999999999947e+00,3.141592653589793116e+00,0.000000000000000000e+00,3.389889190805135677e-02
2.955000000000000071e+00,3.141592653589793116e+00,0.000000000000000000e+00,1.036469308265390576e-02
2.969999999999999751e+00,3.141592653589793116e+00,0.000000000000000000e+00,2.519960140854475561e-03
